Wavelength (nm)	Normal incidence	30 deg incidence		40 deg incidence		50 deg incidence		60 deg incidence		70 deg incidence	
		S-polarization	P-polarization	S-polarization	P-polarization	S-polarization	P-polarization	S-polarization	P-polarization	S-polarization	P-polarization
300	11.6713	15.0988	8.0032	18.471	5.3072	23.9218	2.3951	32.6297	0.8007	46.2965	5.3321
301	11.3906	14.7876	7.7556	18.1396	5.0935	23.573	2.2404	32.2793	0.752	45.9795	5.4681
302	11.1125	14.4791	7.5107	17.8109	4.883	23.2271	2.0903	31.9327	0.7109	45.6677	5.6156
303	10.8349	14.1707	7.2655	17.4824	4.6731	22.8815	1.9442	31.5873	0.6811	45.3592	5.7848
304	10.5652	13.8709	7.027	17.1629	4.4696	22.5459	1.805	31.2529	0.6598	45.0631	5.9638
305	10.3035	13.5799	6.7946	16.8528	4.2718	22.2205	1.6724	30.9302	0.6482	44.7804	6.1561
306	10.053	13.3011	6.5699	16.5559	4.0808	21.9094	1.5477	30.6234	0.6484	44.5155	6.3645
307	9.8156	13.0368	6.3549	16.2746	3.898	21.6155	1.4308	30.3354	0.6574	44.2711	6.5816
308	9.5942	12.7904	6.1504	16.0126	3.7238	21.3426	1.3227	30.0705	0.6787	44.0514	6.8144
309	9.3913	12.5647	5.958	15.773	3.559	21.0941	1.2235	29.832	0.7114	43.8595	7.06
310	9.2055	12.3583	5.7765	15.5543	3.4024	20.8685	1.132	29.6186	0.7537	43.6942	7.3163
311	9.0455	12.1808	5.6099	15.3669	3.2569	20.6768	1.0514	29.4411	0.8126	43.5649	7.594
312	8.9052	12.0255	5.4541	15.2035	3.1189	20.5114	0.9785	29.2918	0.8837	43.4647	7.8878
313	8.7857	11.8937	5.3084	15.0658	2.9876	20.3739	0.9138	29.1724	0.9704	43.3948	8.2049
314	8.6921	11.7912	5.1749	14.9598	2.8647	20.2708	0.8603	29.089	1.0803	43.3598	8.5578
315	8.6167	11.7094	5.0476	14.8763	2.7459	20.1921	0.8159	29.0317	1.2128	43.3511	8.9479
316	8.5648	11.6542	4.9292	14.8217	2.634	20.1448	0.7862	29.0069	1.3801	43.3734	9.3945
317	8.5358	11.6249	4.8196	14.7951	2.531	20.1275	0.7767	29.0132	1.5915	43.4246	9.9107
318	8.522	11.613	4.7148	14.7875	2.4359	20.1309	0.7902	29.0413	1.8535	43.497	10.5057
319	8.536	11.6324	4.6293	14.8136	2.3663	20.1703	0.8486	29.1053	2.1926	43.6002	11.2075
320	8.5663	11.6702	4.5626	14.8597	2.3269	20.2309	0.9586	29.1909	2.6112	43.7227	12.0112
321	8.6111	11.7245	4.5244	14.9236	2.3322	20.3108	1.1364	29.2961	3.1219	43.8628	12.9221
322	8.6827	11.8088	4.5507	15.0196	2.422	20.424	1.4107	29.433	3.7239	44.0266	13.9
323	8.7635	11.9037	4.6364	15.1269	2.5923	20.5494	1.7721	29.5823	4.3964	44.2012	14.9144
324	8.8623	12.0187	4.8087	15.2558	2.8666	20.6971	2.2233	29.7527	5.1037	44.3913	15.8883
325	8.9774	12.1517	5.0656	15.4036	3.2317	20.864	2.7278	29.9403	5.7763	44.5918	16.7216
326	9.1001	12.2934	5.38	15.5608	3.6565	21.0411	3.2603	30.138	6.4067	44.801	17.433
327	9.24	12.4538	5.7367	15.7374	4.1061	21.237	3.7577	30.351	6.8948	45.0161	17.8856
328	9.3863	12.6212	6.0975	15.9213	4.5444	21.4401	4.2082	30.5702	7.277	45.2341	18.1701
329	9.5406	12.7975	6.4508	16.1145	4.9596	21.6527	4.6081	30.7977	7.566	45.4574	18.3167
330	9.7001	12.9789	6.7706	16.3122	5.3162	21.8682	4.9191	31.0244	7.7276	45.6723	18.2951
331	9.8632	13.1642	7.0692	16.5141	5.641	22.0878	5.1909	31.2547	7.8444	45.8897	18.2223
332	10.0286	13.3518	7.3404	16.7178	5.9255	22.3083	5.4142	31.484	7.9084	46.1025	18.0914
333	10.1925	13.5371	7.5834	16.9187	6.1715	22.5249	5.5956	31.7073	7.9342	46.3064	17.9261
334	10.3581	13.7241	7.8116	17.121	6.3977	22.7426	5.758	31.9311	7.9482	46.5098	17.7561
335	10.5189	13.9053	8.0162	17.3167	6.5939	22.9521	5.8909	32.1449	7.9414	46.7011	17.5744
336	10.6769	14.0831	8.2064	17.5083	6.7728	23.157	6.0092	32.3531	7.9294	46.8862	17.3976
337	10.834	14.2597	8.3875	17.6985	6.9406	23.3599	6.1189	32.5587	7.9168	47.0683	17.2285
338	10.9806	14.4242	8.5481	17.8753	7.0857	23.5478	6.2093	32.7479	7.8954	47.2338	17.0631
339	11.1252	14.5862	8.7024	18.0492	7.2241	23.7324	6.2958	32.9336	7.8773	47.396	16.9088
340	11.2642	14.7418	8.8468	18.2161	7.3521	23.9094	6.3749	33.1111	7.8592	47.5503	16.763
341	11.3942	14.8871	8.9785	18.3718	7.4675	24.0741	6.4449	33.2758	7.8405	47.6928	16.6268
342	11.5209	15.0286	9.1051	18.5232	7.578	24.2342	6.5125	33.4358	7.8246	47.8313	16.4997
343	11.6386	15.16	9.2209	18.6639	7.6783	24.3827	6.5732	33.584	7.8091	47.9592	16.382
344	11.7498	15.284	9.3293	18.7964	7.7721	24.5227	6.6303	33.7236	7.7958	48.0799	16.274
345	11.8571	15.4037	9.4333	18.9244	7.8619	24.6577	6.6855	33.8584	7.785	48.1967	16.1736
346	11.9543	15.512	9.5272	19.0402	7.9432	24.7801	6.7359	33.9807	7.7764	48.3031	16.085
347	12.0483	15.6168	9.6179	19.1522	8.022	24.8984	6.7857	34.0992	7.7707	48.4067	16.0038
348	12.1379	15.7166	9.7044	19.259	8.0974	25.0114	6.8342	34.2126	7.7676	48.5064	15.9303
349	12.2213	15.8097	9.7854	19.3587	8.1685	25.117	6.8808	34.319	7.7673	48.6006	15.8658
350	12.3026	15.9004	9.8643	19.4558	8.238	25.22	6.9272	34.423	7.7691	48.6932	15.8067
351	12.3797	15.9864	9.9395	19.548	8.3046	25.318	6.9725	34.5222	7.7732	48.7822	15.7545
352	12.4535	16.0689	10.0117	19.6364	8.369	25.412	7.0173	34.6178	7.7796	48.8687	15.7084
353	12.5256	16.1495	10.0824	19.7229	8.4324	25.5042	7.0619	34.7118	7.7876	48.954	15.6665
354	12.5939	16.2258	10.1499	19.805	8.4933	25.5918	7.1058	34.8015	7.798	49.0364	15.6313
355	12.6606	16.3005	10.216	19.8853	8.5534	25.6777	7.1497	34.8898	7.81	49.1179	15.6
356	12.7258	16.3735	10.2808	19.9639	8.6124	25.7619	7.1935	34.9766	7.8237	49.1986	15.5727
357	12.7884	16.4436	10.3435	20.0395	8.6701	25.8432	7.2373	35.0609	7.8395	49.2776	15.5508
358	12.8503	16.5131	10.4055	20.1144	8.7274	25.9237	7.2812	35.1445	7.8566	49.3565	15.532
359	12.9107	16.5809	10.4664	20.1877	8.784	26.0028	7.3253	35.227	7.8754	49.4348	15.5171
360	12.97	16.6475	10.5265	20.2597	8.8401	26.0806	7.3697	35.3086	7.8961	49.5128	15.5062
361	13.0289	16.7138	10.5862	20.3314	8.896	26.1582	7.4145	35.39	7.918	49.5911	15.4979
362	13.0868	16.779	10.6452	20.402	8.9517	26.2349	7.4598	35.4709	7.9418	49.6695	15.4938
363	13.1445	16.844	10.7041	20.4725	9.0075	26.3115	7.5056	35.552	7.9671	49.7485	15.4924
364	13.2021	16.909	10.7629	20.5431	9.0634	26.3883	7.5519	35.6334	7.9936	49.828	15.4934
365	13.2596	16.9738	10.8219	20.6136	9.1197	26.4652	7.5992	35.7154	8.0223	49.9087	15.4985
366	13.3174	17.0392	10.8812	20.6847	9.1764	26.5428	7.6472	35.7982	8.0522	49.9905	15.5056
367	13.3757	17.1051	10.9409	20.7564	9.2337	26.6212	7.6962	35.8821	8.0837	50.0737	15.5154
368	13.435	17.1721	11.0017	20.8294	9.2921	26.7012	7.7465	35.9678	8.1172	50.1589	15.5282
369	13.4952	17.2402	11.0632	20.9036	9.3512	26.7824	7.7977	36.0549	8.1518	50.2457	15.5426
370	13.5568	17.31	11.126	20.9796	9.4118	26.8657	7.8504	36.1444	8.1884	50.335	15.5597
371	13.6199	17.3814	11.1902	21.0574	9.4735	26.9511	7.9042	36.236	8.2263	50.4265	15.5784
372	13.6842	17.4542	11.2553	21.1368	9.5361	27.0381	7.959	36.3295	8.2652	50.5198	15.5986
373	13.751	17.5298	11.3226	21.2192	9.6006	27.1283	8.0156	36.4264	8.306	50.6164	15.6207
374	13.8193	17.607	11.391	21.3033	9.6662	27.2205	8.0731	36.5253	8.3477	50.715	15.6438
375	13.8894	17.6864	11.4609	21.3897	9.7331	27.3151	8.1318	36.6267	8.3906	50.8159	15.668
376	13.962	17.7684	11.5328	21.479	9.8017	27.4128	8.1919	36.7312	8.4347	50.9197	15.6932
377	14.0362	17.8523	11.606	21.5703	9.8713	27.5126	8.2529	36.8379	8.4796	51.0254	15.7193
378	14.1129	17.9389	11.6811	21.6644	9.9426	27.6154	8.3153	36.9476	8.5256	51.1338	15.746
379	14.1917	18.0278	11.7579	21.7611	10.0152	27.7208	8.3787	37.0599	8.5724	51.2444	15.7731
380	14.2722	18.1187	11.836	21.8598	10.089	27.8284	8.443	37.1743	8.6199	51.3569	15.8009
381	14.3556	18.2127	11.9163	21.9618	10.1644	27.9393	8.5087	37.292	8.6682	51.4721	15.8286
382	14.4407	18.3086	11.9979	22.0658	10.241	28.0523	8.5751	37.4117	8.7171	51.5889	15.8566
383	14.5278	18.4066	12.081	22.172	10.3187	28.1677	8.6423	37.5336	8.7666	51.7075	15.8848
384	14.6173	18.5073	12.1658	22.281	10.3978	28.2857	8.7105	37.658	8.8165	51.828	15.9125
385	14.7084	18.6096	12.2518	22.3917	10.4777	28.4056	8.7794	37.7841	8.8668	51.9498	15.9404
386	14.8016	18.7142	12.3393	22.5047	10.5588	28.5277	8.849	37.9123	8.9174	52.0729	15.9677
387	14.8964	18.8206	12.428	22.6196	10.6408	28.6517	8.919	38.042	8.9681	52.1971	15.9944
388	14.9927	18.9285	12.5177	22.7361	10.7235	28.7772	8.9897	38.1731	9.0191	52.3222	16.021
389	15.0906	19.0381	12.6085	22.8542	10.8068	28.9043	9.0604	38.3054	9.0696	52.4477	16.0462
390	15.1895	19.1488	12.6998	22.9733	10.8905	29.0322	9.1313	38.4383	9.1201	52.5734	16.0708
391	15.2894	19.2604	12.7917	23.0934	10.9746	29.1611	9.2024	38.5718	9.1705	52.6992	16.0949
392	15.3896	19.3722	12.8835	23.2136	11.0582	29.2898	9.2726	38.7048	9.2197	52.8238	16.117
393	15.4902	19.4845	12.9755	23.3341	11.1419	29.4187	9.3429	38.8378	9.2688	52.9483	16.139
394	15.5909	19.5968	13.0672	23.4546	11.2252	29.5474	9.4126	38.9703	9.3173	53.0717	16.1599
395	15.6913	19.7086	13.1585	23.5745	11.3079	29.6754	9.4816	39.1017	9.365	53.1937	16.1798
396	15.7919	19.8206	13.2498	23.6945	11.3905	29.8033	9.5505	39.233	9.4126	53.3153	16.1996
397	15.8917	19.9316	13.3401	23.8134	11.472	29.9299	9.6183	39.3626	9.4591	53.4351	16.2181
398	15.9912	20.0423	13.43	23.9318	11.5532	30.0558	9.6857	39.4914	9.5053	53.5538	16.2364
399	16.0907	20.1527	13.5197	24.05	11.634	30.1814	9.7528	39.6197	9.5513	53.6719	16.2545
400	16.1888	20.2617	13.608	24.1665	11.7135	30.3051	9.8186	39.7459	9.5961	53.7876	16.2715
401	16.2868	20.3705	13.6962	24.2827	11.7928	30.4284	9.8842	39.8715	9.6409	53.9028	16.2887
402	16.3841	20.4784	13.7836	24.398	11.8714	30.5507	9.9492	39.996	9.6852	54.0168	16.3056
403	16.4805	20.5852	13.87	24.512	11.949	30.6715	10.0134	40.1189	9.7289	54.1291	16.3222
404	16.5766	20.6917	13.9562	24.6257	12.0264	30.7919	10.0773	40.2413	9.7726	54.2408	16.3389
405	16.6716	20.7969	14.0413	24.7379	12.1027	30.9108	10.1404	40.362	9.8157	54.3509	16.3554
406	16.7659	20.9014	14.1257	24.8494	12.1785	31.0287	10.203	40.4817	9.8585	54.4601	16.372
407	16.86	21.0056	14.2099	24.9604	12.254	31.1462	10.2655	40.6009	9.9014	54.5687	16.3889
408	16.9528	21.1082	14.2928	25.0698	12.3284	31.2619	10.327	40.7183	9.9436	54.6756	16.4057
409	17.0453	21.2106	14.3756	25.1789	12.4026	31.3773	10.3884	40.8352	9.986	54.7821	16.4229
410	17.1373	21.3124	14.4578	25.2874	12.4763	31.4919	10.4496	40.9514	10.0284	54.8879	16.4405
411	17.2284	21.4132	14.5392	25.3948	12.5494	31.6054	10.5102	41.0665	10.0706	54.9928	16.4585
412	17.3194	21.5138	14.6205	25.502	12.6224	31.7188	10.5708	41.1814	10.113	55.0974	16.477
413	17.4099	21.6138	14.7013	25.6085	12.6949	31.8313	10.6312	41.2955	10.1555	55.2014	16.4961
414	17.5	21.7134	14.7819	25.7146	12.7673	31.9435	10.6915	41.4092	10.1982	55.3051	16.5159
415	17.5901	21.8131	14.8624	25.8207	12.8397	32.0556	10.752	41.523	10.2412	55.4088	16.5364
416	17.6799	21.9123	14.9427	25.9265	12.9119	32.1674	10.8125	41.6364	10.2846	55.5124	16.5579
417	17.77	22.0119	15.0233	26.0326	12.9845	32.2796	10.8733	41.7502	10.3286	55.6164	16.5802
418	17.8604	22.1118	15.1042	26.139	13.0574	32.3921	10.9346	41.8644	10.3732	55.7208	16.6035
419	17.9514	22.2124	15.1856	26.2461	13.1309	32.5053	10.9966	41.9794	10.4186	55.8259	16.6281
420	18.0429	22.3136	15.2676	26.3539	13.2049	32.6193	11.0591	42.095	10.4647	55.9317	16.6534
421	18.1353	22.4156	15.3504	26.4626	13.2796	32.7341	11.1223	42.2116	10.5116	56.0383	16.6797
422	18.2285	22.5186	15.4339	26.5722	13.3551	32.85	11.1863	42.3292	10.5593	56.1458	16.7069
423	18.3225	22.6225	15.5182	26.6827	13.4312	32.9667	11.2509	42.4476	10.6077	56.254	16.7348
424	18.4177	22.7275	15.6034	26.7945	13.5084	33.0848	11.3165	42.5672	10.657	56.3633	16.7637
425	18.5137	22.8335	15.6896	26.9073	13.5863	33.2038	11.3828	42.6878	10.707	56.4733	16.7931
426	18.6107	22.9405	15.7765	27.0211	13.665	33.3239	11.4498	42.8094	10.7577	56.5841	16.8233
427	18.7089	23.0488	15.8646	27.1363	13.7447	33.4453	11.5178	42.9322	10.8091	56.696	16.854
428	18.808	23.1581	15.9534	27.2524	13.8252	33.5677	11.5864	43.0559	10.8613	56.8084	16.8853
429	18.9082	23.2685	16.0432	27.3696	13.9065	33.6912	11.6559	43.1806	10.9141	56.9217	16.917
430	19.0095	23.3801	16.1341	27.4881	13.9888	33.8159	11.7261	43.3064	10.9675	57.0358	16.9492
431	19.1117	23.4926	16.2257	27.6075	14.0718	33.9414	11.797	43.433	11.0215	57.1504	16.9818
432	19.2151	23.6063	16.3184	27.7282	14.1558	34.0682	11.8688	43.5606	11.0762	57.2657	17.0146
433	19.3194	23.721	16.4119	27.8498	14.2405	34.1959	11.9411	43.689	11.1313	57.3815	17.0476
434	19.4246	23.8366	16.5062	27.9723	14.3259	34.3245	12.0141	43.8181	11.187	57.4978	17.081
435	19.5309	23.9534	16.6015	28.096	14.4122	34.4541	12.0879	43.9481	11.2431	57.6146	17.1143
436	19.638	24.0709	16.6975	28.2204	14.4992	34.5844	12.1621	44.0786	11.2996	57.7317	17.1477
437	19.746	24.1893	16.7942	28.3456	14.5868	34.7155	12.2369	44.2097	11.3565	57.849	17.1812
438	19.8547	24.3085	16.8917	28.4717	14.675	34.8472	12.3123	44.3413	11.4136	57.9666	17.2145
439	19.9642	24.4285	16.9897	28.5984	14.7638	34.9796	12.3881	44.4733	11.4711	58.0842	17.2479
440	20.0744	24.5491	17.0885	28.7257	14.8532	35.1124	12.4643	44.6057	11.5288	58.2019	17.2809
441	20.1852	24.6702	17.1877	28.8535	14.943	35.2457	12.5408	44.7382	11.5865	58.3194	17.3136
442	20.2965	24.7919	17.2874	28.9819	15.0332	35.3793	12.6177	44.8709	11.6446	58.437	17.3464
443	20.4083	24.9139	17.3874	29.1104	15.1237	35.513	12.6947	45.0035	11.7024	58.5539	17.3783
444	20.5204	25.0363	17.4878	29.2393	15.2144	35.6469	12.772	45.136	11.7603	58.6707	17.41
445	20.6328	25.1589	17.5884	29.3683	15.3054	35.7808	12.8493	45.2684	11.8182	58.787	17.4413
446	20.7453	25.2814	17.6891	29.4971	15.3964	35.9144	12.9266	45.4001	11.8757	58.9024	17.4716
447	20.8579	25.4041	17.7898	29.6259	15.4874	36.0478	13.0038	45.5316	11.9332	59.0174	17.5017
448	20.9703	25.5263	17.8903	29.7542	15.5782	36.1806	13.0808	45.6621	11.9901	59.1312	17.5308
449	21.0823	25.648	17.9905	29.8819	15.6686	36.3125	13.1573	45.7917	12.0466	59.2439	17.5591
450	21.1942	25.7695	18.0906	30.0093	15.7589	36.4441	13.2338	45.9206	12.1028	59.3558	17.5871
451	21.3051	25.8899	18.1897	30.1354	15.8483	36.574	13.3093	46.0478	12.158	59.4659	17.6136
452	21.4156	26.0097	18.2885	30.2608	15.9374	36.7033	13.3845	46.1742	12.213	59.575	17.6398
453	21.5256	26.1289	18.3868	30.3856	16.0261	36.8317	13.4593	46.2995	12.2675	59.6831	17.6654
454	21.6345	26.2468	18.4841	30.5088	16.1138	36.9584	13.5331	46.423	12.321	59.7893	17.6899
455	21.743	26.3642	18.5811	30.6315	16.2011	37.0845	13.6067	46.5457	12.3743	59.8948	17.714
456	21.8506	26.4805	18.6771	30.7529	16.2877	37.2091	13.6795	46.6669	12.4268	59.9986	17.7374
457	21.9572	26.5957	18.7723	30.8731	16.3734	37.3324	13.7516	46.7866	12.4787	60.1011	17.7601
458	22.0633	26.7103	18.8672	30.9927	16.4588	37.4549	13.8234	46.9055	12.5303	60.2027	17.7825
459	22.1681	26.8234	18.9607	31.1106	16.543	37.5756	13.8941	47.0225	12.5809	60.3025	17.804
460	22.2722	26.9357	19.0537	31.2276	16.6267	37.6953	13.9644	47.1384	12.6312	60.4012	17.8252
461	22.3757	27.0472	19.1461	31.3437	16.7099	37.8141	14.0342	47.2532	12.681	60.499	17.846
462	22.4777	27.1571	19.2372	31.4581	16.7919	37.931	14.1029	47.3661	12.73	60.595	17.866
463	22.5792	27.2664	19.3279	31.5718	16.8735	38.0471	14.1713	47.4783	12.7787	60.6902	17.8859
464	22.6798	27.3746	19.4177	31.6843	16.9543	38.1619	14.239	47.589	12.8268	60.7841	17.9052
465	22.7792	27.4816	19.5065	31.7955	17.0342	38.2753	14.3059	47.6983	12.8742	60.8767	17.9242
466	22.8782	27.5879	19.5949	31.9061	17.1137	38.388	14.3725	47.8069	12.9215	60.9686	17.943
467	22.9758	27.6929	19.6821	32.015	17.1921	38.499	14.4382	47.9138	12.968	61.059	17.9614
468	23.0728	27.797	19.7687	32.1231	17.27	38.6091	14.5034	48.0196	13.0142	61.1485	17.9795
469	23.1691	27.9004	19.8548	32.2305	17.3475	38.7184	14.5683	48.1247	13.0601	61.2372	17.9975
470	23.2641	28.0023	19.9397	32.3363	17.4238	38.826	14.6321	48.2281	13.1053	61.3245	18.0152
471	23.3586	28.1038	20.0241	32.4414	17.4998	38.9329	14.6958	48.3308	13.1504	61.4112	18.0328
472	23.4524	28.2042	20.1079	32.5456	17.5752	39.0389	14.7589	48.4325	13.195	61.4969	18.0502
473	23.5451	28.3037	20.1908	32.6487	17.6497	39.1436	14.8213	48.533	13.2392	61.5817	18.0675
474	23.6374	28.4026	20.2733	32.7512	17.724	39.2477	14.8836	48.6329	13.2834	61.6659	18.0849
475	23.7288	28.5004	20.355	32.8526	17.7975	39.3507	14.9451	48.7316	13.327	61.7491	18.1021
476	23.8195	28.5976	20.4361	32.9532	17.8705	39.4528	15.0063	48.8296	13.3705	61.8316	18.1193
477	23.9098	28.6943	20.5169	33.0533	17.9433	39.5545	15.0674	48.927	13.4138	61.9137	18.1366
478	23.9991	28.7898	20.5967	33.1523	18.0152	39.6549	15.1277	49.0232	13.4568	61.9947	18.154
479	24.088	28.885	20.6763	33.2508	18.0869	39.7549	15.1879	49.1191	13.4997	62.0755	18.1714
480	24.1765	28.9796	20.7555	33.3488	18.1583	39.8542	15.2478	49.2143	13.5425	62.1557	18.189
481	24.2643	29.0736	20.8341	33.446	18.2291	39.9528	15.3074	49.3087	13.5851	62.2353	18.2068
482	24.3519	29.1672	20.9126	33.5429	18.2999	40.0511	15.3669	49.4029	13.6278	62.3146	18.2248
483	24.439	29.2603	20.9906	33.6393	18.3702	40.1488	15.4261	49.4965	13.6704	62.3936	18.243
484	24.5258	29.3531	21.0684	33.7353	18.4404	40.2462	15.4853	49.5897	13.7131	62.4722	18.2615
485	24.6125	29.4458	21.1461	33.8311	18.5106	40.3434	15.5444	49.6828	13.7559	62.5507	18.2803
486	24.6988	29.5381	21.2235	33.9266	18.5805	40.4401	15.6035	49.7755	13.7987	62.629	18.2995
487	24.7851	29.6303	21.3009	34.0219	18.6504	40.5368	15.6626	49.8681	13.8416	62.7071	18.3189
488	24.8713	29.7224	21.3783	34.1171	18.7203	40.6333	15.7217	49.9605	13.8847	62.7851	18.3386
489	24.9573	29.8143	21.4555	34.2122	18.7902	40.7296	15.7808	50.0528	13.9279	62.863	18.3586
490	25.0434	29.9061	21.5327	34.3071	18.8601	40.8258	15.84	50.1449	13.9713	62.9408	18.3789
491	25.1293	29.9979	21.6099	34.402	18.9299	40.9219	15.8993	50.2369	14.0148	63.0184	18.3996
492	25.2152	30.0896	21.6871	34.4967	18.9998	41.0179	15.9586	50.3288	14.0585	63.096	18.4205
493	25.3011	30.1813	21.7644	34.5915	19.0698	41.1138	16.018	50.4207	14.1023	63.1736	18.4416
494	25.387	30.2729	21.8416	34.6862	19.1398	41.2097	16.0775	50.5124	14.1463	63.2511	18.4632
495	25.4729	30.3645	21.9189	34.7808	19.2098	41.3055	16.1371	50.6041	14.1904	63.3285	18.4849
496	25.5588	30.4562	21.9962	34.8755	19.28	41.4013	16.1969	50.6958	14.2348	63.4059	18.5069
497	25.6448	30.5478	22.0736	34.9702	19.3502	41.4971	16.2567	50.7874	14.2793	63.4832	18.5292
498	25.7308	30.6395	22.1511	35.0648	19.4205	41.5929	16.3166	50.879	14.3239	63.5605	18.5518
499	25.8168	30.7312	22.2286	35.1595	19.4908	41.6886	16.3767	50.9706	14.3688	63.6377	18.5746
500	25.9029	30.823	22.3062	35.2542	19.5613	41.7844	16.4369	51.0621	14.4138	63.7149	18.5976
501	25.9891	30.9148	22.3839	35.3489	19.6319	41.8801	16.4972	51.1536	14.459	63.7921	18.6209
502	26.0753	31.0066	22.4616	35.4436	19.7025	41.9758	16.5577	51.245	14.5043	63.8692	18.6445
503	26.1615	31.0984	22.5395	35.5383	19.7733	42.0716	16.6182	51.3365	14.5498	63.9463	18.6682
504	26.2479	31.1903	22.6174	35.6331	19.8442	42.1673	16.6789	51.4279	14.5955	64.0233	18.6921
505	26.3343	31.2823	22.6954	35.7279	19.9152	42.2631	16.7397	51.5193	14.6414	64.1003	18.7163
506	26.4208	31.3743	22.7736	35.8228	19.9863	42.3588	16.8007	51.6106	14.6874	64.1772	18.7407
507	26.5073	31.4664	22.8518	35.9176	20.0575	42.4546	16.8618	51.702	14.7335	64.2541	18.7653
508	26.5939	31.5584	22.93	36.0125	20.1287	42.5503	16.923	51.7932	14.7799	64.3309	18.79
509	26.6806	31.6506	23.0084	36.1074	20.2001	42.646	16.9843	51.8845	14.8263	64.4076	18.815
510	26.7673	31.7428	23.0869	36.2023	20.2716	42.7417	17.0457	51.9757	14.8729	64.4843	18.8401
511	26.8541	31.835	23.1654	36.2973	20.3432	42.8374	17.1073	52.0668	14.9197	64.561	18.8654
512	26.941	31.9272	23.244	36.3922	20.4149	42.9331	17.169	52.1579	14.9666	64.6375	18.8908
513	27.0279	32.0195	23.3227	36.4872	20.4867	43.0288	17.2307	52.249	15.0136	64.7139	18.9164
514	27.1148	32.1118	23.4014	36.5821	20.5585	43.1244	17.2926	52.3399	15.0607	64.7903	18.9421
515	27.2018	32.2041	23.4803	36.6771	20.6305	43.22	17.3546	52.4308	15.108	64.8665	18.9679
516	27.2888	32.2964	23.5591	36.772	20.7024	43.3155	17.4166	52.5216	15.1553	64.9427	18.9939
517	27.3759	32.3887	23.6381	36.8669	20.7745	43.411	17.4788	52.6123	15.2028	65.0187	19.02
518	27.463	32.481	23.717	36.9618	20.8467	43.5064	17.541	52.7029	15.2503	65.0946	19.0462
519	27.5501	32.5733	23.796	37.0566	20.9188	43.6017	17.6033	52.7934	15.298	65.1703	19.0725
520	27.6372	32.6656	23.8751	37.1514	20.9911	43.6969	17.6657	52.8837	15.3457	65.246	19.0989
521	27.7242	32.7578	23.9541	37.246	21.0633	43.792	17.728	52.9739	15.3935	65.3214	19.1253
522	27.8113	32.8499	24.0331	37.3406	21.1356	43.887	17.7905	53.064	15.4414	65.3967	19.1518
523	27.8983	32.942	24.1122	37.4352	21.2079	43.9819	17.853	53.1539	15.4893	65.4718	19.1784
524	27.9852	33.034	24.1912	37.5295	21.2801	44.0765	17.9154	53.2435	15.5372	65.5466	19.205
525	28.0721	33.1259	24.2701	37.6237	21.3523	44.1711	17.9779	53.333	15.5852	65.6213	19.2317
526	28.1589	33.2176	24.349	37.7178	21.4245	44.2654	18.0403	53.4222	15.6331	65.6957	19.2583
527	28.2455	33.3091	24.4277	37.8116	21.4966	44.3594	18.1027	53.5111	15.681	65.7698	19.285
528	28.3321	33.4006	24.5065	37.9053	21.5687	44.4533	18.1651	53.5999	15.729	65.8438	19.3118
529	28.4184	33.4917	24.585	37.9987	21.6406	44.5469	18.2274	53.6883	15.7769	65.9174	19.3385
530	28.5046	33.5828	24.6635	38.092	21.7125	44.6402	18.2897	53.7765	15.8249	65.9908	19.3653
531	28.5908	33.6737	24.7419	38.1851	21.7844	44.7334	18.352	53.8645	15.8728	66.064	19.3922
532	28.6767	33.7644	24.8201	38.2779	21.856	44.8263	18.4141	53.9521	15.9207	66.1369	19.4191
533	28.7625	33.8549	24.8983	38.3706	21.9277	44.919	18.4763	54.0396	15.9687	66.2096	19.4461
534	28.8482	33.9453	24.9764	38.4631	21.9993	45.0115	18.5384	54.1268	16.0166	66.2821	19.4731
535	28.9338	34.0355	25.0544	38.5554	22.0708	45.1037	18.6004	54.2137	16.0646	66.3544	19.5002
536	29.0193	34.1256	25.1323	38.6475	22.1423	45.1958	18.6625	54.3005	16.1126	66.4265	19.5274
537	29.1046	34.2155	25.2101	38.7395	22.2137	45.2877	18.7245	54.3871	16.1605	66.4983	19.5547
538	29.1898	34.3052	25.2878	38.8312	22.285	45.3793	18.7865	54.4734	16.2086	66.5699	19.5822
539	29.275	34.3949	25.3655	38.9229	22.3563	45.4709	18.8486	54.5596	16.2567	66.6415	19.6097
540	29.3599	34.4844	25.4431	39.0144	22.4276	45.5622	18.9105	54.6455	16.3048	66.7127	19.6373
541	29.4449	34.5738	25.5206	39.1057	22.4988	45.6534	18.9725	54.7313	16.353	66.7839	19.6651
542	29.5298	34.6632	25.5982	39.197	22.57	45.7444	19.0345	54.817	16.4012	66.8549	19.693
543	29.6146	34.7524	25.6756	39.2881	22.6412	45.8353	19.0965	54.9025	16.4495	66.9258	19.7211
544	29.6994	34.8415	25.7531	39.3792	22.7124	45.9262	19.1586	54.9879	16.4979	66.9965	19.7493
545	29.7841	34.9306	25.8305	39.4701	22.7836	46.0168	19.2207	55.0731	16.5464	67.0672	19.7777
546	29.8687	35.0196	25.9079	39.561	22.8548	46.1074	19.2828	55.1583	16.595	67.1377	19.8063
547	29.9534	35.1086	25.9853	39.6519	22.9261	46.198	19.345	55.2434	16.6436	67.2081	19.835
548	30.0381	35.1976	26.0628	39.7427	22.9973	46.2885	19.4073	55.3283	16.6924	67.2785	19.864
549	30.1227	35.2865	26.1402	39.8334	23.0686	46.3789	19.4696	55.4132	16.7414	67.3488	19.8932
550	30.2074	35.3755	26.2177	39.9242	23.14	46.4693	19.532	55.4981	16.7904	67.419	19.9225
551	30.2921	35.4644	26.2953	40.0149	23.2114	46.5596	19.5945	55.5829	16.8396	67.4892	19.9521
552	30.3768	35.5534	26.3729	40.1057	23.283	46.65	19.6571	55.6677	16.8889	67.5594	19.9819
553	30.4616	35.6425	26.4506	40.1965	23.3546	46.7404	19.7199	55.7526	16.9385	67.6296	20.012
554	30.5465	35.7316	26.5284	40.2873	23.4263	46.8308	19.7828	55.8374	16.9882	67.6997	20.0423
555	30.6315	35.8207	26.6063	40.3782	23.4982	46.9212	19.8458	55.9222	17.038	67.7699	20.0729
556	30.7166	35.91	26.6843	40.4692	23.5702	47.0118	19.909	56.0071	17.0881	67.8401	20.1038
557	30.8018	35.9994	26.7625	40.5603	23.6423	47.1023	19.9723	56.0921	17.1384	67.9103	20.1349
558	30.8871	36.0888	26.8408	40.6514	23.7146	47.193	20.0358	56.1771	17.1889	67.9806	20.1663
559	30.9726	36.1785	26.9193	40.7428	23.7871	47.2839	20.0996	56.2622	17.2396	68.051	20.1981
560	31.0582	36.2683	26.9979	40.8343	23.8597	47.3748	20.1635	56.3474	17.2906	68.1214	20.2301
561	31.1441	36.3583	27.0768	40.9259	23.9326	47.4659	20.2277	56.4328	17.3418	68.1919	20.2624
562	31.2301	36.4485	27.1558	41.0178	24.0057	47.5572	20.2921	56.5183	17.3933	68.2626	20.2951
563	31.3163	36.5389	27.2351	41.1098	24.079	47.6486	20.3567	56.604	17.4451	68.3333	20.3281
564	31.4029	36.6295	27.3147	41.2021	24.1526	47.7404	20.4216	56.6899	17.4972	68.4043	20.3615
565	31.4897	36.7205	27.3945	41.2946	24.2265	47.8323	20.4869	56.7759	17.5496	68.4754	20.3953
566	31.5767	36.8116	27.4746	41.3874	24.3007	47.9244	20.5524	56.8622	17.6023	68.5466	20.4294
567	31.6641	36.9032	27.5551	41.4806	24.3752	48.0169	20.6183	56.9488	17.6555	68.6181	20.4639
568	31.7518	36.995	27.6358	41.574	24.45	48.1097	20.6844	57.0355	17.7089	68.6897	20.4988
569	31.8399	37.0871	27.7169	41.6678	24.5252	48.2028	20.751	57.1226	17.7627	68.7616	20.5341
570	31.9284	37.1798	27.7985	41.762	24.6008	48.2963	20.8179	57.2101	17.8169	68.8338	20.5699
571	32.0172	37.2727	27.8803	41.8565	24.6767	48.39	20.8852	57.2978	17.8715	68.9061	20.6061
572	32.1066	37.3662	27.9628	41.9516	24.7532	48.4844	20.9531	57.386	17.9266	68.9789	20.6428
573	32.1964	37.4602	28.0457	42.0471	24.8301	48.5792	21.0214	57.4746	17.9822	69.052	20.68
574	32.2867	37.5545	28.1289	42.1431	24.9075	48.6743	21.09	57.5635	18.0381	69.1253	20.7175
575	32.3777	37.6498	28.213	42.2399	24.9856	48.7703	21.1595	57.6532	18.0948	69.1992	20.7558
576	32.4693	37.7455	28.2976	42.3371	25.0641	48.8666	21.2294	57.7432	18.1519	69.2734	20.7945
577	32.5615	37.8418	28.3828	42.435	25.1433	48.9636	21.2998	57.8337	18.2096	69.348	20.8336
578	32.6544	37.9389	28.4687	42.5336	25.2232	49.0614	21.371	57.925	18.2679	69.4231	20.8734
579	32.7478	38.0365	28.5551	42.6327	25.3036	49.1595	21.4426	58.0165	18.3267	69.4985	20.9135
580	32.8421	38.1349	28.6423	42.7326	25.3848	49.2584	21.515	58.1088	18.3861	69.5744	20.9541
581	32.9369	38.2339	28.7301	42.8331	25.4665	49.3579	21.5879	58.2015	18.446	69.6506	20.9952
582	33.0323	38.3334	28.8184	42.9341	25.5487	49.4577	21.6613	58.2945	18.5064	69.7271	21.0366
583	33.1286	38.4339	28.9076	43.036	25.6319	49.5585	21.7356	58.3884	18.5675	69.8041	21.0786
584	33.2254	38.5348	28.9973	43.1383	25.7155	49.6596	21.8103	58.4825	18.629	69.8814	21.1209
585	33.3228	38.6363	29.0876	43.2412	25.7996	49.7613	21.8855	58.5771	18.691	69.959	21.1635
586	33.421	38.7386	29.1787	43.3449	25.8846	49.8637	21.9615	58.6723	18.7536	70.037	21.2066
587	33.5196	38.8413	29.2702	43.449	25.97	49.9664	22.0378	58.7677	18.8166	70.1151	21.25
588	33.6189	38.9447	29.3624	43.5537	26.056	50.0697	22.1149	58.8636	18.8801	70.1936	21.2936
589	33.7189	39.0487	29.4553	43.659	26.1427	50.1735	22.1924	58.96	18.9441	70.2723	21.3376
590	33.8192	39.1531	29.5485	43.7646	26.2298	50.2776	22.2704	59.0565	19.0085	70.3512	21.3818
591	33.9204	39.2582	29.6425	43.8709	26.3176	50.3824	22.3491	59.1536	19.0734	70.4304	21.4264
592	34.022	39.3638	29.737	43.9776	26.4059	50.4874	22.4282	59.2509	19.1387	70.5098	21.4711
593	34.124	39.4697	29.8319	44.0848	26.4946	50.5928	22.5077	59.3484	19.2044	70.5892	21.5161
594	34.2267	39.5763	29.9275	44.1924	26.584	50.6987	22.5879	59.4463	19.2705	70.6689	21.5612
595	34.3297	39.6832	30.0234	44.3004	26.6737	50.8048	22.6683	59.5443	19.337	70.7486	21.6066
596	34.4332	39.7906	30.1199	44.4088	26.7639	50.9113	22.7493	59.6426	19.4038	70.8285	21.652
597	34.5373	39.8984	30.2169	44.5176	26.8547	51.0181	22.8307	59.7411	19.471	70.9084	21.6977
598	34.6416	40.0065	30.3141	44.6265	26.9457	51.125	22.9124	59.8397	19.5384	70.9883	21.7434
599	34.7464	40.115	30.412	44.736	27.0373	51.2323	22.9947	59.9385	19.6063	71.0683	21.7892
600	34.8516	40.2238	30.5101	44.8456	27.1292	51.3397	23.0772	60.0374	19.6743	71.1483	21.8351
601	34.957	40.3329	30.6085	44.9554	27.2214	51.4473	23.16	60.1363	19.7426	71.2282	21.8811
602	35.0629	40.4423	30.7075	45.0656	27.3141	51.5551	23.2433	60.2353	19.8113	71.3082	21.9271
603	35.169	40.5519	30.8066	45.1759	27.4071	51.6629	23.3268	60.3343	19.8801	71.388	21.9731
604	35.2754	40.6617	30.9061	45.2863	27.5003	51.7709	23.4106	60.4334	19.9491	71.4678	22.0192
605	35.382	40.7717	31.0058	45.3969	27.5939	51.8789	23.4947	60.5323	20.0183	71.5474	22.0651
606	35.4888	40.8819	31.1058	45.5075	27.6876	51.9869	23.579	60.6312	20.0877	71.6269	22.1111
607	35.5959	40.9922	31.206	45.6183	27.7817	52.0949	23.6635	60.73	20.1573	71.7063	22.157
608	35.703	41.1026	31.3064	45.7291	27.8759	52.2029	23.7483	60.8287	20.2269	71.7854	22.2028
609	35.8104	41.213	31.4069	45.8399	27.9703	52.3108	23.8332	60.9273	20.2967	71.8644	22.2486
610	35.9178	41.3235	31.5077	45.9507	28.0649	52.4187	23.9183	61.0257	20.3666	71.9431	22.2941
611	36.0253	41.4341	31.6085	46.0615	28.1597	52.5264	24.0035	61.1239	20.4366	72.0216	22.3396
612	36.1329	41.5446	31.7095	46.1722	28.2545	52.634	24.0888	61.2219	20.5066	72.0998	22.3849
613	36.2405	41.655	31.8105	46.2827	28.3495	52.7413	24.1743	61.3196	20.5766	72.1776	22.43
614	36.3481	41.7654	31.9115	46.3932	28.4445	52.8485	24.2598	61.417	20.6466	72.2553	22.475
615	36.4556	41.8757	32.0126	46.5035	28.5395	52.9555	24.3453	61.5141	20.7167	72.3325	22.5197
616	36.5631	41.9858	32.1136	46.6135	28.6345	53.0621	24.4308	61.6109	20.7867	72.4094	22.5642
617	36.6705	42.0958	32.2146	46.7234	28.7296	53.1685	24.5164	61.7074	20.8566	72.4859	22.6085
618	36.7777	42.2055	32.3155	46.8329	28.8246	53.2745	24.6019	61.8033	20.9265	72.5619	22.6524
619	36.8848	42.315	32.4164	46.9422	28.9195	53.3802	24.6874	61.8989	20.9962	72.6376	22.6961
620	36.9918	42.4243	32.5171	47.0512	29.0143	53.4855	24.7728	61.9941	21.0659	72.7129	22.7396
621	37.0985	42.5332	32.6176	47.1598	29.109	53.5903	24.858	62.0887	21.1354	72.7876	22.7826
622	37.205	42.6419	32.718	47.268	29.2036	53.6948	24.9432	62.183	21.2047	72.8619	22.8254
623	37.3111	42.7502	32.8182	47.3758	29.298	53.7987	25.0282	62.2766	21.2739	72.9357	22.8678
624	37.417	42.8581	32.9181	47.4832	29.3921	53.9021	25.113	62.3697	21.3428	73.0088	22.9098
625	37.5226	42.9657	33.0178	47.5901	29.4862	54.005	25.1977	62.4623	21.4116	73.0816	22.9515
626	37.6277	43.0726	33.1171	47.6964	29.5798	54.1072	25.282	62.5541	21.48	73.1537	22.9926
627	37.7325	43.1792	33.2161	47.8022	29.6732	54.2089	25.3661	62.6454	21.5482	73.2252	23.0334
628	37.8369	43.2853	33.3148	47.9076	29.7663	54.3101	25.45	62.7361	21.6161	73.2962	23.0738
629	37.9407	43.3906	33.4129	48.0121	29.8589	54.4103	25.5334	62.8259	21.6835	73.3664	23.1135
630	38.0441	43.4955	33.5108	48.1161	29.9513	54.5101	25.6166	62.9151	21.7508	73.436	23.153
631	38.1469	43.5998	33.6081	48.2194	30.0432	54.609	25.6994	63.0036	21.8176	73.505	23.1918
632	38.249	43.7033	33.7049	48.3219	30.1345	54.7071	25.7817	63.0912	21.8839	73.5732	23.2301
633	38.3507	43.8062	33.8012	48.4238	30.2256	54.8046	25.8637	63.1781	21.9499	73.6408	23.268
634	38.4515	43.9082	33.8968	48.5246	30.3159	54.9009	25.945	63.264	22.0153	73.7074	23.3051
635	38.5517	44.0094	33.9918	48.6247	30.4056	54.9965	26.0258	63.349	22.0802	73.7734	23.3416
636	38.6512	44.11	34.0863	48.7241	30.4949	55.0913	26.1062	63.4333	22.1447	73.8387	23.3778
637	38.7497	44.2094	34.1797	48.8221	30.5833	55.1848	26.1857	63.5163	22.2084	73.9029	23.413
638	38.8475	44.3081	34.2727	48.9196	30.6712	55.2775	26.2649	63.5987	22.2717	73.9665	23.4478
639	38.9446	44.4059	34.3649	49.016	30.7584	55.3693	26.3434	63.6801	22.3344	74.0293	23.4821
640	39.0406	44.5027	34.4562	49.1114	30.8447	55.46	26.4211	63.7604	22.3964	74.0912	23.5156
641	39.1361	44.5988	34.5469	49.206	30.9306	55.55	26.4985	63.84	22.4581	74.1525	23.5488
642	39.2305	44.6937	34.6368	49.2995	31.0156	55.6387	26.575	63.9185	22.519	74.2128	23.5812
643	39.3241	44.7878	34.7259	49.3921	31.0999	55.7266	26.6509	63.9961	22.5794	74.2724	23.6131
644	39.4172	44.8813	34.8144	49.484	31.1838	55.8138	26.7264	64.073	22.6394	74.3315	23.6446
645	39.5089	44.9734	34.9018	49.5745	31.2666	55.8995	26.8009	64.1486	22.6985	74.3894	23.6753
646	39.6001	45.0649	34.9887	49.6644	31.3488	55.9846	26.8749	64.2236	22.7572	74.4468	23.7057
647	39.6905	45.1555	35.0749	49.7534	31.4304	56.0688	26.9484	64.2977	22.8154	74.5035	23.7356
648	39.7798	45.245	35.16	49.8412	31.5111	56.1519	27.021	64.3707	22.8729	74.5593	23.7648
649	39.8686	45.3339	35.2447	49.9284	31.5914	56.2343	27.0932	64.4431	22.93	74.6146	23.7937
650	39.9564	45.4217	35.3285	50.0145	31.6707	56.3156	27.1646	64.5145	22.9864	74.669	23.822
651	40.0433	45.5086	35.4114	50.0996	31.7494	56.396	27.2354	64.5851	23.0423	74.7228	23.8498
652	40.1296	45.595	35.4939	50.1842	31.8276	56.4757	27.3058	64.655	23.0978	74.776	23.8773
653	40.2148	45.6801	35.5753	50.2675	31.9048	56.5543	27.3753	64.7238	23.1526	74.8283	23.9042
654	40.2994	45.7645	35.6561	50.3502	31.9815	56.6321	27.4443	64.792	23.2069	74.8802	23.9308
655	40.3833	45.8482	35.7363	50.432	32.0575	56.7092	27.5128	64.8595	23.2608	74.9314	23.957
656	40.4662	45.9309	35.8156	50.5128	32.1327	56.7852	27.5804	64.9259	23.314	74.9818	23.9826
657	40.5485	46.0129	35.8943	50.593	32.2074	56.8607	27.6477	64.9918	23.3668	75.0318	24.0079
658	40.6299	46.0941	35.9722	50.6723	32.2814	56.9352	27.7143	65.0569	23.4191	75.0811	24.0329
659	40.7106	46.1743	36.0494	50.7506	32.3547	57.0088	27.7803	65.1211	23.4709	75.1297	24.0574
660	40.7907	46.2541	36.1261	50.8285	32.4275	57.0819	27.8459	65.1849	23.5223	75.178	24.0816
661	40.8698	46.3327	36.2019	50.9052	32.4995	57.154	27.9106	65.2477	23.5731	75.2254	24.1054
662	40.9483	46.4108	36.2771	50.9813	32.5709	57.2254	27.975	65.3099	23.6235	75.2724	24.1289
663	41.0262	46.4882	36.3518	51.0569	32.6419	57.2962	28.0389	65.3715	23.6735	75.319	24.1522
664	41.1032	46.5647	36.4256	51.1313	32.712	57.366	28.102	65.4322	23.7229	75.3648	24.1749
665	41.1796	46.6406	36.4989	51.2053	32.7817	57.4353	28.1648	65.4925	23.772	75.4103	24.1975
666	41.2554	46.7157	36.5716	51.2785	32.8507	57.5038	28.227	65.5521	23.8207	75.4552	24.2198
667	41.3303	46.7901	36.6435	51.3509	32.9191	57.5716	28.2886	65.611	23.8688	75.4996	24.2417
668	41.4049	46.864	36.7151	51.4228	32.9872	57.6389	28.3499	65.6694	23.9167	75.5436	24.2635
669	41.4786	46.9371	36.7858	51.4939	33.0545	57.7054	28.4105	65.7271	23.9641	75.5871	24.2849
670	41.5517	47.0095	36.8561	51.5644	33.1213	57.7712	28.4707	65.7843	24.0111	75.6301	24.3061
671	41.6244	47.0815	36.9259	51.6343	33.1877	57.8366	28.5305	65.841	24.0579	75.6728	24.3272
672	41.6961	47.1525	36.9948	51.7034	33.2533	57.9012	28.5897	65.8969	24.104	75.7148	24.3478
673	41.7675	47.2231	37.0634	51.772	33.3186	57.9652	28.6485	65.9524	24.15	75.7566	24.3684
674	41.8383	47.2932	37.1315	51.8401	33.3834	58.0288	28.707	66.0075	24.1956	75.7979	24.3887
675	41.9084	47.3625	37.1989	51.9074	33.4475	58.0916	28.7648	66.0619	24.2407	75.8388	24.4088
676	41.9781	47.4314	37.2659	51.9743	33.5114	58.154	28.8224	66.116	24.2857	75.8794	24.4288
677	42.0471	47.4996	37.3324	52.0406	33.5747	58.2158	28.8795	66.1694	24.3302	75.9195	24.4485
678	42.1157	47.5674	37.3984	52.1063	33.6375	58.2771	28.9362	66.2225	24.3745	75.9593	24.4682
679	42.1838	47.6347	37.464	52.1716	33.7	58.338	28.9926	66.2751	24.4185	75.9989	24.4877
680	42.2513	47.7013	37.5289	52.2362	33.7619	58.3982	29.0484	66.3272	24.4622	76.038	24.507
681	42.3183	47.7675	37.5935	52.3004	33.8234	58.4581	29.104	66.3789	24.5056	76.0768	24.5261
682	42.385	47.8332	37.6577	52.3642	33.8846	58.5175	29.1592	66.4303	24.5487	76.1153	24.5452
683	42.451	47.8984	37.7213	52.4274	33.9453	58.5763	29.214	66.4811	24.5915	76.1534	24.5642
684	42.5167	47.9632	37.7847	52.4902	34.0057	58.6348	29.2686	66.5317	24.6342	76.1913	24.5831
685	42.582	48.0276	37.8476	52.5526	34.0656	58.6929	29.3228	66.5818	24.6766	76.2289	24.6019
686	42.6467	48.0914	37.91	52.6145	34.1252	58.7505	29.3766	66.6316	24.7187	76.2662	24.6205
687	42.7112	48.155	37.9722	52.676	34.1845	58.8078	29.4303	66.6811	24.7607	76.3033	24.6392
688	42.7752	48.218	38.0339	52.7371	34.2434	58.8646	29.4835	66.7301	24.8024	76.3401	24.6577
689	42.8388	48.2807	38.0953	52.7978	34.302	58.9211	29.5365	66.7789	24.8439	76.3767	24.6762
690	42.9021	48.3431	38.1564	52.8582	34.3603	58.9773	29.5893	66.8274	24.8853	76.4131	24.6947
691	42.965	48.405	38.217	52.9182	34.4182	59.0331	29.6417	66.8755	24.9264	76.4492	24.7131
692	43.0275	48.4666	38.2774	52.9778	34.4759	59.0886	29.6939	66.9234	24.9673	76.4851	24.7316
693	43.0898	48.5279	38.3375	53.0372	34.5333	59.1438	29.7459	66.9711	25.0082	76.5208	24.75
694	43.1517	48.5888	38.3973	53.0962	34.5904	59.1986	29.7976	67.0184	25.0488	76.5563	24.7684
695	43.2133	48.6495	38.4568	53.1549	34.6473	59.2532	29.8491	67.0656	25.0894	76.5917	24.7868
696	43.2746	48.7098	38.5161	53.2133	34.7038	59.3075	29.9004	67.1124	25.1298	76.6268	24.8052
697	43.3356	48.7699	38.575	53.2714	34.7602	59.3616	29.9516	67.1591	25.1701	76.6618	24.8237
698	43.3965	48.8297	38.6338	53.3294	34.8164	59.4154	30.0025	67.2055	25.2103	76.6967	24.8421
699	43.457	48.8892	38.6923	53.387	34.8723	59.469	30.0533	67.2518	25.2503	76.7314	24.8606
700	43.5173	48.9486	38.7506	53.4444	34.9281	59.5224	30.1039	67.2978	25.2903	76.766	24.8792
701	43.5774	49.0077	38.8087	53.5016	34.9837	59.5755	30.1544	67.3437	25.3303	76.8005	24.8979
702	43.6372	49.0666	38.8666	53.5586	35.039	59.6285	30.2047	67.3895	25.3701	76.8348	24.9166
703	43.697	49.1253	38.9244	53.6154	35.0943	59.6814	30.255	67.4351	25.41	76.8691	24.9354
704	43.7565	49.1839	38.982	53.6721	35.1494	59.734	30.3051	67.4806	25.4498	76.9032	24.9543
705	43.8158	49.2423	39.0394	53.7286	35.2044	59.7865	30.3551	67.5259	25.4895	76.9373	24.9733
706	43.8751	49.3005	39.0968	53.785	35.2593	59.839	30.4051	67.5712	25.5293	76.9714	24.9923
707	43.9342	49.3587	39.154	53.8412	35.3141	59.8912	30.4549	67.6163	25.569	77.0053	25.0116
708	43.9932	49.4167	39.2111	53.8974	35.3688	59.9434	30.5048	67.6614	25.6088	77.0393	25.031
709	44.0521	49.4746	39.2682	53.9534	35.4235	59.9956	30.5546	67.7065	25.6486	77.0731	25.0504
710	44.111	49.5325	39.3252	54.0094	35.4781	60.0477	30.6044	67.7515	25.6884	77.107	25.0701
711	44.1697	49.5903	39.3821	54.0654	35.5327	60.0997	30.6542	67.7964	25.7283	77.1409	25.0899
712	44.2285	49.6481	39.439	54.1213	35.5872	60.1516	30.704	67.8413	25.7682	77.1747	25.1099
713	44.2872	49.7058	39.4959	54.1771	35.6418	60.2036	30.7538	67.8862	25.8082	77.2085	25.13
714	44.3458	49.7635	39.5527	54.2329	35.6963	60.2555	30.8036	67.9311	25.8482	77.2423	25.1502
715	44.4044	49.8211	39.6096	54.2887	35.7508	60.3073	30.8534	67.9759	25.8883	77.2761	25.1706
716	44.463	49.8787	39.6664	54.3444	35.8053	60.3592	30.9033	68.0207	25.9285	77.3099	25.1912
717	44.5216	49.9363	39.7232	54.4001	35.8598	60.411	30.9531	68.0655	25.9687	77.3436	25.2119
718	44.5801	49.9939	39.78	54.4558	35.9143	60.4628	31.003	68.1103	26.009	77.3774	25.2328
719	44.6386	50.0514	39.8367	54.5115	35.9688	60.5145	31.053	68.1551	26.0494	77.4112	25.2538
720	44.6971	50.1089	39.8935	54.5671	36.0233	60.5663	31.1029	68.1998	26.0898	77.4449	25.2749
721	44.7556	50.1664	39.9503	54.6228	36.0779	60.618	31.1529	68.2446	26.1304	77.4787	25.2963
722	44.8141	50.2239	40.0071	54.6784	36.1324	60.6698	31.2029	68.2893	26.171	77.5125	25.3177
723	44.8726	50.2814	40.0638	54.734	36.187	60.7215	31.253	68.334	26.2117	77.5462	25.3393
724	44.9311	50.3389	40.1206	54.7896	36.2416	60.7732	31.3031	68.3788	26.2524	77.58	25.3611
725	44.9896	50.3963	40.1774	54.8452	36.2962	60.8249	31.3532	68.4235	26.2932	77.6137	25.383
726	45.0481	50.4538	40.2343	54.9008	36.3509	60.8766	31.4034	68.4682	26.3342	77.6475	25.4051
727	45.1065	50.5113	40.2911	54.9564	36.4056	60.9283	31.4537	68.5129	26.3752	77.6813	25.4272
728	45.165	50.5687	40.3479	55.0119	36.4602	60.9799	31.504	68.5576	26.4162	77.715	25.4495
729	45.2235	50.6262	40.4048	55.0675	36.515	61.0316	31.5543	68.6023	26.4574	77.7488	25.472
730	45.282	50.6837	40.4617	55.1231	36.5697	61.0833	31.6047	68.647	26.4987	77.7825	25.4946
731	45.3405	50.7411	40.5186	55.1787	36.6245	61.135	31.6551	68.6917	26.54	77.8163	25.5174
732	45.399	50.7986	40.5755	55.2343	36.6793	61.1866	31.7056	68.7364	26.5814	77.8501	25.5403
733	45.4575	50.856	40.6325	55.2898	36.7342	61.2383	31.7561	68.781	26.6229	77.8838	25.5633
734	45.5161	50.9135	40.6895	55.3454	36.7891	61.2899	31.8067	68.8257	26.6645	77.9176	25.5864
735	45.5746	50.971	40.7464	55.401	36.844	61.3416	31.8574	68.8704	26.7061	77.9513	25.6097
736	45.6331	51.0285	40.8034	55.4565	36.8989	61.3932	31.9081	68.915	26.7479	77.9851	25.6331
737	45.6917	51.086	40.8605	55.5121	36.9539	61.4449	31.9588	68.9597	26.7897	78.0188	25.6566
738	45.7503	51.1435	40.9175	55.5677	37.0089	61.4965	32.0096	69.0044	26.8316	78.0525	25.6803
739	45.8088	51.2009	40.9746	55.6232	37.064	61.5481	32.0604	69.049	26.8736	78.0863	25.7041
740	45.8674	51.2584	41.0317	55.6788	37.1191	61.5998	32.1114	69.0936	26.9157	78.12	25.728
741	45.926	51.3159	41.0888	55.7343	37.1742	61.6514	32.1623	69.1382	26.9578	78.1537	25.752
742	45.9846	51.3734	41.146	55.7899	37.2293	61.703	32.2133	69.1829	27	78.1874	25.7761
743	46.0432	51.4309	41.2032	55.8455	37.2845	61.7546	32.2644	69.2275	27.0423	78.2211	25.8004
744	46.1018	51.4884	41.2603	55.901	37.3397	61.8062	32.3154	69.272	27.0847	78.2548	25.8247
745	46.1605	51.5459	41.3175	55.9565	37.395	61.8578	32.3666	69.3166	27.1271	78.2885	25.8492
746	46.2191	51.6034	41.3748	56.0121	37.4503	61.9093	32.4178	69.3612	27.1696	78.3222	25.8738
747	46.2777	51.6609	41.432	56.0676	37.5056	61.9609	32.469	69.4058	27.2122	78.3558	25.8985
748	46.3364	51.7184	41.4893	56.1231	37.5609	62.0124	32.5204	69.4503	27.2549	78.3895	25.9234
749	46.395	51.7759	41.5466	56.1787	37.6163	62.064	32.5717	69.4948	27.2976	78.4231	25.9483
750	46.4537	51.8334	41.6039	56.2342	37.6717	62.1155	32.6231	69.5393	27.3405	78.4567	25.9733
751	46.5123	51.8908	41.6612	56.2897	37.7271	62.167	32.6745	69.5838	27.3833	78.4903	25.9984
752	46.571	51.9483	41.7185	56.3451	37.7826	62.2185	32.726	69.6283	27.4263	78.5239	26.0236
753	46.6297	52.0058	41.7759	56.4006	37.8381	62.2699	32.7775	69.6727	27.4693	78.5574	26.049
754	46.6883	52.0633	41.8333	56.4561	37.8936	62.3214	32.8291	69.7171	27.5124	78.591	26.0744
755	46.747	52.1207	41.8906	56.5115	37.9491	62.3728	32.8807	69.7615	27.5555	78.6245	26.0999
756	46.8057	52.1781	41.948	56.5669	38.0047	62.4242	32.9324	69.8059	27.5988	78.658	26.1255
757	46.8643	52.2356	42.0054	56.6223	38.0603	62.4756	32.984	69.8503	27.642	78.6915	26.1512
758	46.923	52.293	42.0628	56.6777	38.1159	62.527	33.0358	69.8946	27.6854	78.7249	26.177
759	46.9816	52.3504	42.1203	56.7331	38.1715	62.5783	33.0875	69.9389	27.7288	78.7583	26.2028
760	47.0402	52.4078	42.1777	56.7884	38.2272	62.6296	33.1393	69.9831	27.7722	78.7917	26.2288
761	47.0989	52.4651	42.2351	56.8438	38.2829	62.6809	33.1912	70.0274	27.8158	78.8251	26.2548
762	47.1575	52.5225	42.2926	56.8991	38.3385	62.7321	33.2431	70.0716	27.8593	78.8585	26.281
763	47.2161	52.5798	42.35	56.9543	38.3942	62.7833	33.295	70.1157	27.903	78.8918	26.3072
764	47.2748	52.6371	42.4075	57.0096	38.45	62.8345	33.3469	70.1598	27.9467	78.9251	26.3335
765	47.3333	52.6944	42.4649	57.0648	38.5057	62.8856	33.3989	70.2039	27.9904	78.9583	26.3598
766	47.3919	52.7517	42.5224	57.12	38.5614	62.9368	33.4509	70.248	28.0342	78.9915	26.3863
767	47.4505	52.8089	42.5799	57.1752	38.6172	62.9879	33.5029	70.292	28.078	79.0247	26.4128
768	47.5091	52.8662	42.6373	57.2303	38.673	63.0389	33.5549	70.336	28.1219	79.0579	26.4393
769	47.5676	52.9234	42.6948	57.2854	38.7288	63.0899	33.607	70.3799	28.1658	79.091	26.466
770	47.6261	52.9805	42.7522	57.3404	38.7845	63.1408	33.6591	70.4238	28.2098	79.1241	26.4927
771	47.6846	53.0376	42.8097	57.3955	38.8403	63.1918	33.7113	70.4677	28.2538	79.1571	26.5195
772	47.7431	53.0948	42.8671	57.4505	38.8961	63.2426	33.7634	70.5115	28.2979	79.1901	26.5464
773	47.8016	53.1518	42.9245	57.5054	38.952	63.2935	33.8156	70.5553	28.342	79.2231	26.5733
774	47.86	53.2089	42.982	57.5603	39.0077	63.3443	33.8678	70.599	28.3862	79.256	26.6003
775	47.9184	53.2659	43.0394	57.6152	39.0636	63.395	33.92	70.6426	28.4304	79.2889	26.6273
776	47.9768	53.3228	43.0968	57.67	39.1194	63.4457	33.9722	70.6862	28.4746	79.3217	26.6544
777	48.0351	53.3797	43.1541	57.7248	39.1752	63.4963	34.0245	70.7298	28.5189	79.3545	26.6815
778	48.0935	53.4366	43.2115	57.7795	39.231	63.5469	34.0767	70.7733	28.5632	79.3873	26.7088
779	48.1517	53.4935	43.2689	57.8342	39.2868	63.5974	34.129	70.8168	28.6075	79.42	26.736
780	48.21	53.5503	43.3262	57.8888	39.3426	63.6479	34.1813	70.8602	28.6519	79.4526	26.7633
781	48.2682	53.607	43.3835	57.9434	39.3983	63.6983	34.2335	70.9035	28.6963	79.4852	26.7907
782	48.3264	53.6637	43.4408	57.9979	39.4541	63.7487	34.2858	70.9468	28.7407	79.5178	26.8181
783	48.3845	53.7204	43.4981	58.0524	39.5099	63.799	34.3381	70.99	28.7851	79.5503	26.8456
784	48.4427	53.777	43.5553	58.1068	39.5656	63.8492	34.3904	71.0332	28.8296	79.5827	26.8731
785	48.5007	53.8336	43.6125	58.1612	39.6214	63.8994	34.4427	71.0763	28.8741	79.6151	26.9006
786	48.5587	53.8901	43.6697	58.2155	39.6771	63.9495	34.495	71.1193	28.9186	79.6475	26.9282
787	48.6167	53.9465	43.7269	58.2697	39.7328	63.9996	34.5473	71.1623	28.9632	79.6798	26.9558
788	48.6747	54.0029	43.784	58.3239	39.7885	64.0496	34.5997	71.2052	29.0077	79.712	26.9835
789	48.7326	54.0593	43.8411	58.378	39.8442	64.0995	34.652	71.2481	29.0523	79.7442	27.0112
790	48.7904	54.1155	43.8982	58.4321	39.8998	64.1493	34.7043	71.2908	29.0969	79.7763	27.0389
791	48.8482	54.1717	43.9552	58.486	39.9554	64.1991	34.7566	71.3336	29.1415	79.8084	27.0667
792	48.9059	54.2279	44.0122	58.5399	40.011	64.2488	34.8088	71.3762	29.1861	79.8404	27.0945
793	48.9636	54.284	44.0691	58.5938	40.0666	64.2984	34.8611	71.4187	29.2308	79.8723	27.1223
794	49.0212	54.34	44.126	58.6476	40.1221	64.348	34.9134	71.4612	29.2754	79.9042	27.1502
795	49.0788	54.396	44.1829	58.7012	40.1776	64.3975	34.9656	71.5036	29.32	79.936	27.1781
796	49.1363	54.4518	44.2397	58.7549	40.2331	64.4469	35.0178	71.546	29.3647	79.9677	27.206
797	49.1937	54.5077	44.2965	58.8084	40.2886	64.4962	35.0701	71.5882	29.4094	79.9994	27.234
798	49.2511	54.5634	44.3532	58.8619	40.344	64.5454	35.1222	71.6304	29.454	80.031	27.2619
799	49.3084	54.6191	44.4099	58.9153	40.3993	64.5945	35.1744	71.6725	29.4987	80.0626	27.2899
800	49.3657	54.6746	44.4665	58.9686	40.4547	64.6436	35.2266	71.7145	29.5433	80.0941	27.3179
801	49.4229	54.7302	44.5231	59.0218	40.51	64.6926	35.2787	71.7564	29.588	80.1255	27.3459
802	49.4799	54.7856	44.5796	59.0749	40.5652	64.7415	35.3308	71.7983	29.6326	80.1568	27.3739
803	49.537	54.8409	44.6361	59.1279	40.6204	64.7903	35.3829	71.84	29.6773	80.1881	27.402
804	49.5939	54.8962	44.6924	59.1809	40.6755	64.8389	35.4349	71.8817	29.7219	80.2193	27.43
805	49.6508	54.9513	44.7488	59.2337	40.7306	64.8875	35.4869	71.9233	29.7665	80.2504	27.4581
806	49.7076	55.0064	44.805	59.2865	40.7857	64.9361	35.5389	71.9647	29.8111	80.2815	27.4862
807	49.7643	55.0614	44.8612	59.3392	40.8406	64.9845	35.5908	72.0061	29.8557	80.3124	27.5143
808	49.8209	55.1163	44.9173	59.3917	40.8956	65.0328	35.6427	72.0474	29.9003	80.3433	27.5424
809	49.8775	55.1711	44.9734	59.4442	40.9505	65.081	35.6945	72.0887	29.9449	80.3742	27.5705
810	49.934	55.2258	45.0294	59.4966	41.0053	65.1291	35.7464	72.1298	29.9894	80.4049	27.5986
811	49.9904	55.2805	45.0853	59.5489	41.0601	65.1772	35.7982	72.1708	30.034	80.4356	27.6268
812	50.0467	55.335	45.1412	59.6011	41.1148	65.2251	35.8499	72.2118	30.0785	80.4662	27.6549
813	50.103	55.3895	45.197	59.6532	41.1695	65.273	35.9016	72.2526	30.123	80.4968	27.6831
814	50.1591	55.4439	45.2528	59.7053	41.2241	65.3207	35.9533	72.2934	30.1675	80.5272	27.7113
815	50.2152	55.4982	45.3085	59.7572	41.2787	65.3684	36.005	72.3341	30.212	80.5576	27.7395
816	50.2712	55.5524	45.3641	59.809	41.3332	65.416	36.0566	72.3747	30.2565	80.588	27.7677
817	50.3271	55.6065	45.4196	59.8608	41.3876	65.4634	36.1081	72.4152	30.301	80.6182	27.7959
818	50.383	55.6605	45.4751	59.9124	41.442	65.5108	36.1597	72.4556	30.3454	80.6484	27.8241
819	50.4388	55.7144	45.5305	59.964	41.4964	65.5581	36.2112	72.496	30.3899	80.6785	27.8523
820	50.4944	55.7683	45.5858	60.0154	41.5507	65.6053	36.2626	72.5362	30.4343	80.7085	27.8806
821	50.55	55.822	45.6411	60.0668	41.6049	65.6524	36.314	72.5764	30.4787	80.7385	27.9088
822	50.6056	55.8757	45.6963	60.1181	41.6591	65.6994	36.3654	72.6164	30.5231	80.7684	27.9371
823	50.661	55.9293	45.7515	60.1693	41.7132	65.7463	36.4168	72.6564	30.5675	80.7982	27.9654
824	50.7164	55.9828	45.8065	60.2204	41.7673	65.7932	36.4681	72.6963	30.6118	80.828	27.9937
825	50.7717	56.0362	45.8616	60.2714	41.8213	65.8399	36.5193	72.7361	30.6562	80.8577	28.022
826	50.8269	56.0895	45.9165	60.3224	41.8753	65.8866	36.5706	72.7759	30.7005	80.8873	28.0503
827	50.882	56.1427	45.9714	60.3732	41.9292	65.9331	36.6218	72.8155	30.7448	80.9169	28.0786
828	50.9371	56.1959	46.0262	60.4239	41.9831	65.9796	36.6729	72.8551	30.7892	80.9463	28.107
829	50.992	56.249	46.081	60.4746	42.0369	66.0259	36.7241	72.8945	30.8334	80.9757	28.1353
830	51.0469	56.3019	46.1356	60.5251	42.0906	66.0722	36.7751	72.9339	30.8777	81.0051	28.1637
831	51.1018	56.3548	46.1902	60.5756	42.1443	66.1184	36.8262	72.9732	30.922	81.0344	28.192
832	51.1565	56.4076	46.2448	60.626	42.198	66.1645	36.8772	73.0125	30.9662	81.0636	28.2204
833	51.2112	56.4603	46.2993	60.6763	42.2516	66.2105	36.9282	73.0516	31.0105	81.0927	28.2489
834	51.2657	56.513	46.3537	60.7265	42.3051	66.2565	36.9791	73.0907	31.0547	81.1218	28.2773
835	51.3202	56.5655	46.4081	60.7766	42.3586	66.3023	37.03	73.1296	31.0989	81.1508	28.3057
836	51.3747	56.618	46.4624	60.8267	42.412	66.348	37.0808	73.1685	31.1431	81.1798	28.3342
837	51.429	56.6704	46.5166	60.8766	42.4654	66.3937	37.1317	73.2074	31.1873	81.2086	28.3626
838	51.4833	56.7227	46.5708	60.9265	42.5187	66.4393	37.1825	73.2461	31.2314	81.2375	28.3911
839	51.5375	56.7749	46.6249	60.9762	42.572	66.4848	37.2332	73.2847	31.2756	81.2662	28.4196
840	51.5917	56.8271	46.679	61.0259	42.6252	66.5302	37.2839	73.3233	31.3197	81.2949	28.4481
841	51.6457	56.8791	46.7329	61.0755	42.6784	66.5755	37.3346	73.3618	31.3639	81.3235	28.4766
842	51.6997	56.9311	46.7869	61.1251	42.7315	66.6208	37.3853	73.4002	31.408	81.3521	28.5052
843	51.7536	56.983	46.8407	61.1745	42.7846	66.6659	37.4359	73.4386	31.4521	81.3806	28.5337
844	51.8075	57.0348	46.8945	61.2239	42.8376	66.711	37.4865	73.4768	31.4962	81.409	28.5623
845	51.8612	57.0865	46.9483	61.2731	42.8906	66.756	37.537	73.515	31.5403	81.4374	28.5909
846	51.9149	57.1382	47.0019	61.3223	42.9435	66.8009	37.5875	73.5531	31.5843	81.4657	28.6194
847	51.9685	57.1898	47.0556	61.3714	42.9964	66.8457	37.638	73.5912	31.6284	81.4939	28.6481
848	52.0221	57.2413	47.1091	61.4205	43.0492	66.8904	37.6884	73.6291	31.6724	81.5221	28.6767
849	52.0755	57.2927	47.1626	61.4694	43.102	66.9351	37.7389	73.667	31.7165	81.5502	28.7054
850	52.129	57.3441	47.2161	61.5183	43.1547	66.9797	37.7892	73.7048	31.7605	81.5783	28.734
851	52.1823	57.3953	47.2694	61.5671	43.2074	67.0242	37.8396	73.7425	31.8045	81.6063	28.7627
852	52.2356	57.4465	47.3228	61.6158	43.26	67.0686	37.8899	73.7802	31.8485	81.6343	28.7914
853	52.2887	57.4976	47.376	61.6644	43.3126	67.1129	37.9402	73.8178	31.8925	81.6622	28.8201
854	52.3419	57.5487	47.4292	61.713	43.3651	67.1572	37.9904	73.8553	31.9365	81.69	28.8489
855	52.3949	57.5996	47.4824	61.7615	43.4176	67.2014	38.0406	73.8927	31.9805	81.7178	28.8776
856	52.4479	57.6505	47.5355	61.8098	43.4701	67.2455	38.0908	73.9301	32.0245	81.7455	28.9064
857	52.5008	57.7013	47.5885	61.8582	43.5225	67.2895	38.141	73.9674	32.0684	81.7731	28.9352
858	52.5537	57.7521	47.6415	61.9064	43.5748	67.3335	38.1911	74.0046	32.1124	81.8007	28.964
859	52.6065	57.8027	47.6944	61.9546	43.6271	67.3774	38.2412	74.0417	32.1563	81.8283	28.9928
860	52.6592	57.8533	47.7473	62.0027	43.6794	67.4212	38.2913	74.0788	32.2002	81.8557	29.0217
861	52.7118	57.9039	47.8001	62.0507	43.7316	67.4649	38.3413	74.1158	32.2442	81.8832	29.0506
862	52.7644	57.9543	47.8529	62.0986	43.7838	67.5085	38.3913	74.1528	32.2881	81.9106	29.0795
863	52.817	58.0047	47.9056	62.1465	43.8359	67.5521	38.4413	74.1897	32.332	81.9379	29.1084
864	52.8694	58.055	47.9582	62.1943	43.888	67.5956	38.4912	74.2265	32.3759	81.9651	29.1373
865	52.9218	58.1053	48.0109	62.242	43.94	67.6391	38.5412	74.2632	32.4198	81.9923	29.1663
866	52.9742	58.1554	48.0634	62.2897	43.992	67.6824	38.5911	74.2999	32.4637	82.0195	29.1952
867	53.0264	58.2055	48.1159	62.3372	44.044	67.7257	38.6409	74.3365	32.5076	82.0466	29.2242
868	53.0786	58.2556	48.1683	62.3848	44.0959	67.7689	38.6908	74.373	32.5515	82.0736	29.2532
869	53.1308	58.3055	48.2207	62.4322	44.1478	67.8121	38.7406	74.4095	32.5954	82.1006	29.2823
870	53.1829	58.3554	48.2731	62.4796	44.1996	67.8552	38.7904	74.4459	32.6393	82.1276	29.3113
871	53.2349	58.4053	48.3254	62.5269	44.2514	67.8982	38.8401	74.4822	32.6831	82.1545	29.3404
872	53.2869	58.455	48.3776	62.5741	44.3032	67.9411	38.8899	74.5185	32.727	82.1813	29.3695
873	53.3388	58.5047	48.4298	62.6212	44.3549	67.984	38.9396	74.5547	32.7709	82.2081	29.3987
874	53.3906	58.5544	48.482	62.6683	44.4066	68.0268	38.9893	74.5909	32.8147	82.2348	29.4278
875	53.4424	58.6039	48.5341	62.7154	44.4582	68.0695	39.039	74.627	32.8586	82.2615	29.457
876	53.4941	58.6534	48.5861	62.7623	44.5098	68.1122	39.0886	74.663	32.9024	82.2882	29.4862
877	53.5458	58.7029	48.6381	62.8092	44.5613	68.1548	39.1382	74.6989	32.9463	82.3148	29.5154
878	53.5974	58.7522	48.6901	62.856	44.6129	68.1973	39.1878	74.7348	32.9901	82.3413	29.5447
879	53.6489	58.8016	48.742	62.9028	44.6643	68.2397	39.2374	74.7707	33.034	82.3678	29.574
880	53.7005	58.8508	48.7939	62.9495	44.7158	68.2822	39.2869	74.8065	33.0778	82.3942	29.6033
881	53.7519	58.9	48.8457	62.9961	44.7672	68.3245	39.3364	74.8422	33.1217	82.4206	29.6326
882	53.8033	58.9491	48.8974	63.0427	44.8186	68.3668	39.386	74.8778	33.1655	82.4469	29.6619
883	53.8546	58.9982	48.9492	63.0892	44.8699	68.409	39.4354	74.9134	33.2094	82.4732	29.6913
884	53.9059	59.0472	49.0009	63.1356	44.9212	68.4511	39.4849	74.949	33.2532	82.4995	29.7207
885	53.9571	59.0962	49.0525	63.182	44.9725	68.4932	39.5344	74.9845	33.2971	82.5257	29.7501
886	54.0083	59.1451	49.1041	63.2283	45.0238	68.5352	39.5838	75.0199	33.3409	82.5519	29.7796
887	54.0594	59.1939	49.1557	63.2746	45.075	68.5772	39.6332	75.0553	33.3848	82.578	29.8091
888	54.1105	59.2427	49.2072	63.3208	45.1261	68.6191	39.6826	75.0906	33.4286	82.604	29.8386
889	54.1615	59.2914	49.2587	63.3669	45.1773	68.6609	39.732	75.1258	33.4725	82.63	29.8681
890	54.2124	59.3401	49.3101	63.413	45.2284	68.7027	39.7813	75.161	33.5163	82.656	29.8977
891	54.2634	59.3887	49.3615	63.459	45.2795	68.7444	39.8306	75.1962	33.5602	82.682	29.9273
892	54.3142	59.4372	49.4128	63.505	45.3305	68.7861	39.88	75.2313	33.6041	82.7078	29.9569
893	54.365	59.4857	49.4641	63.5509	45.3815	68.8277	39.9293	75.2663	33.6479	82.7337	29.9866
894	54.4158	59.5342	49.5154	63.5968	45.4325	68.8693	39.9786	75.3013	33.6918	82.7595	30.0163
895	54.4665	59.5826	49.5667	63.6425	45.4835	68.9107	40.0278	75.3362	33.7357	82.7852	30.046
896	54.5172	59.6309	49.6179	63.6883	45.5344	68.9522	40.0771	75.3711	33.7796	82.811	30.0757
897	54.5678	59.6792	49.669	63.734	45.5853	68.9936	40.1263	75.4059	33.8235	82.8366	30.1055
898	54.6184	59.7274	49.7202	63.7796	45.6362	69.0349	40.1756	75.4407	33.8674	82.8623	30.1353
899	54.6689	59.7756	49.7712	63.8252	45.6871	69.0761	40.2248	75.4754	33.9113	82.8878	30.1652
900	54.7194	59.8237	49.8223	63.8707	45.7379	69.1174	40.274	75.5101	33.9552	82.9134	30.195
901	54.7699	59.8718	49.8733	63.9161	45.7887	69.1585	40.3232	75.5447	33.9991	82.9389	30.2249
902	54.8203	59.9198	49.9243	63.9616	45.8395	69.1996	40.3724	75.5793	34.043	82.9644	30.2549
903	54.8706	59.9678	49.9753	64.0069	45.8902	69.2407	40.4215	75.6138	34.0869	82.9898	30.2848
904	54.9209	60.0157	50.0262	64.0522	45.941	69.2817	40.4707	75.6483	34.1309	83.0152	30.3148
905	54.9712	60.0636	50.0771	64.0975	45.9917	69.3226	40.5198	75.6827	34.1748	83.0405	30.3449
906	55.0214	60.1115	50.1279	64.1427	46.0423	69.3636	40.569	75.7171	34.2188	83.0659	30.3749
907	55.0716	60.1593	50.1788	64.1879	46.093	69.4044	40.6181	75.7514	34.2628	83.0911	30.4051
908	55.1218	60.207	50.2296	64.233	46.1437	69.4452	40.6673	75.7857	34.3068	83.1164	30.4352
909	55.1719	60.2547	50.2803	64.2781	46.1943	69.486	40.7164	75.82	34.3508	83.1416	30.4654
910	55.222	60.3024	50.3311	64.3231	46.2449	69.5267	40.7655	75.8542	34.3948	83.1667	30.4956
911	55.272	60.35	50.3818	64.3681	46.2955	69.5673	40.8146	75.8883	34.4388	83.1919	30.5258
912	55.322	60.3976	50.4325	64.413	46.346	69.608	40.8637	75.9224	34.4828	83.217	30.5561
913	55.372	60.4451	50.4832	64.4579	46.3966	69.6485	40.9128	75.9565	34.5269	83.242	30.5864
914	55.4219	60.4926	50.5338	64.5028	46.4471	69.6891	40.9619	75.9905	34.571	83.267	30.6168
915	55.4718	60.54	50.5844	64.5475	46.4976	69.7295	41.011	76.0245	34.615	83.292	30.6472
916	55.5217	60.5875	50.635	64.5923	46.5481	69.77	41.0601	76.0584	34.6591	83.317	30.6776
917	55.5715	60.6349	50.6856	64.637	46.5986	69.8104	41.1092	76.0923	34.7033	83.3419	30.7081
918	55.6213	60.6822	50.7361	64.6817	46.6491	69.8507	41.1583	76.1262	34.7474	83.3668	30.7386
919	55.6711	60.7295	50.7866	64.7264	46.6996	69.8911	41.2074	76.16	34.7916	83.3917	30.7692
920	55.7209	60.7768	50.8372	64.771	46.75	69.9314	41.2565	76.1938	34.8358	83.4165	30.7998
921	55.7706	60.824	50.8877	64.8156	46.8005	69.9716	41.3056	76.2276	34.88	83.4413	30.8305
922	55.8203	60.8712	50.9381	64.8601	46.8509	70.0118	41.3547	76.2613	34.9242	83.4661	30.8612
923	55.8699	60.9184	50.9886	64.9046	46.9013	70.052	41.4038	76.295	34.9685	83.4908	30.8919
924	55.9196	60.9656	51.039	64.9491	46.9518	70.0921	41.453	76.3286	35.0128	83.5155	30.9227
925	55.9692	61.0127	51.0895	64.9935	47.0022	70.1322	41.5021	76.3622	35.0571	83.5402	30.9536
926	56.0189	61.0598	51.1399	65.0379	47.0527	70.1723	41.5512	76.3958	35.1014	83.5649	30.9844
927	56.0684	61.1069	51.1903	65.0823	47.1031	70.2123	41.6004	76.4294	35.1458	83.5895	31.0154
928	56.118	61.1539	51.2407	65.1267	47.1535	70.2523	41.6496	76.4629	35.1902	83.6141	31.0463
929	56.1675	61.2009	51.2911	65.171	47.2039	70.2923	41.6987	76.4964	35.2346	83.6387	31.0773
930	56.2171	61.2479	51.3415	65.2153	47.2543	70.3322	41.7479	76.5298	35.279	83.6632	31.1084
931	56.2665	61.2949	51.3919	65.2595	47.3047	70.3721	41.7971	76.5632	35.3235	83.6877	31.1395
932	56.316	61.3418	51.4422	65.3037	47.3551	70.4119	41.8463	76.5966	35.368	83.7122	31.1706
933	56.3654	61.3887	51.4925	65.3479	47.4055	70.4517	41.8955	76.6299	35.4125	83.7366	31.2018
934	56.4148	61.4355	51.5428	65.392	47.4559	70.4915	41.9447	76.6632	35.457	83.761	31.2329
935	56.4642	61.4823	51.5931	65.4361	47.5063	70.5312	41.9939	76.6964	35.5016	83.7854	31.2642
936	56.5136	61.5291	51.6434	65.4802	47.5566	70.5709	42.0431	76.7297	35.5461	83.8098	31.2955
937	56.5629	61.5759	51.6937	65.5242	47.607	70.6106	42.0924	76.7628	35.5907	83.8341	31.3268
938	56.6122	61.6226	51.7439	65.5682	47.6574	70.6502	42.1416	76.796	35.6354	83.8584	31.3581
939	56.6615	61.6692	51.7941	65.6121	47.7077	70.6898	42.1908	76.8291	35.68	83.8826	31.3895
940	56.7107	61.7159	51.8443	65.656	47.758	70.7293	42.24	76.8621	35.7246	83.9068	31.4209
941	56.7599	61.7625	51.8945	65.6999	47.8083	70.7688	42.2892	76.8951	35.7693	83.931	31.4523
942	56.8091	61.809	51.9447	65.7437	47.8586	70.8082	42.3384	76.9281	35.8139	83.9552	31.4838
943	56.8582	61.8555	51.9948	65.7874	47.9089	70.8476	42.3876	76.961	35.8586	83.9793	31.5153
944	56.9073	61.902	52.0449	65.8312	47.9591	70.8869	42.4368	76.9939	35.9033	84.0033	31.5468
945	56.9564	61.9484	52.095	65.8748	48.0094	70.9262	42.486	77.0267	35.948	84.0274	31.5784
946	57.0054	61.9948	52.145	65.9185	48.0596	70.9655	42.5353	77.0595	35.9928	84.0514	31.6099
947	57.0544	62.0412	52.1951	65.9621	48.1098	71.0047	42.5845	77.0922	36.0375	84.0753	31.6415
948	57.1034	62.0875	52.2451	66.0056	48.16	71.0438	42.6337	77.1249	36.0822	84.0992	31.6732
949	57.1523	62.1338	52.295	66.0491	48.2102	71.0829	42.6828	77.1575	36.127	84.1231	31.7048
950	57.2012	62.18	52.345	66.0925	48.2603	71.122	42.732	77.1901	36.1717	84.147	31.7365
951	57.25	62.2261	52.3949	66.1359	48.3105	71.1609	42.7812	77.2227	36.2165	84.1708	31.7681
952	57.2988	62.2722	52.4447	66.1792	48.3606	71.1999	42.8303	77.2552	36.2613	84.1945	31.7998
953	57.3475	62.3183	52.4946	66.2225	48.4106	71.2388	42.8794	77.2876	36.306	84.2182	31.8316
954	57.3962	62.3643	52.5444	66.2658	48.4607	71.2776	42.9286	77.32	36.3508	84.2419	31.8633
955	57.4449	62.4103	52.5941	66.3089	48.5107	71.3164	42.9777	77.3523	36.3956	84.2655	31.895
956	57.4935	62.4562	52.6439	66.352	48.5607	71.3551	43.0268	77.3846	36.4404	84.2891	31.9268
957	57.5421	62.502	52.6936	66.3951	48.6107	71.3938	43.0758	77.4168	36.4852	84.3127	31.9586
958	57.5906	62.5478	52.7432	66.4381	48.6606	71.4324	43.1249	77.449	36.5299	84.3362	31.9904
959	57.6391	62.5936	52.7928	66.4811	48.7105	71.4709	43.1739	77.4811	36.5747	84.3596	32.0222
960	57.6875	62.6393	52.8424	66.524	48.7604	71.5094	43.223	77.5132	36.6195	84.383	32.054
961	57.7359	62.6849	52.892	66.5668	48.8102	71.5478	43.272	77.5452	36.6643	84.4064	32.0858
962	57.7842	62.7305	52.9415	66.6096	48.86	71.5862	43.321	77.5772	36.709	84.4297	32.1176
963	57.8324	62.776	52.9909	66.6523	48.9098	71.6245	43.3699	77.6091	36.7538	84.453	32.1495
964	57.8806	62.8215	53.0403	66.6949	48.9596	71.6627	43.4189	77.6409	36.7985	84.4762	32.1813
965	57.9288	62.8669	53.0897	66.7375	49.0093	71.7009	43.4678	77.6727	36.8433	84.4994	32.2131
966	57.9769	62.9122	53.139	66.78	49.0589	71.739	43.5167	77.7044	36.888	84.5225	32.245
967	58.0249	62.9575	53.1882	66.8225	49.1086	71.7771	43.5655	77.736	36.9327	84.5456	32.2768
968	58.0729	63.0027	53.2375	66.8649	49.1581	71.815	43.6144	77.7676	36.9774	84.5686	32.3087
969	58.1208	63.0478	53.2866	66.9072	49.2077	71.853	43.6632	77.7992	37.0221	84.5916	32.3405
970	58.1687	63.0929	53.3358	66.9494	49.2572	71.8908	43.7119	77.8307	37.0668	84.6145	32.3724
971	58.2165	63.1379	53.3848	66.9916	49.3067	71.9286	43.7607	77.8621	37.1115	84.6374	32.4043
972	58.2643	63.1829	53.4339	67.0337	49.3561	71.9663	43.8094	77.8934	37.1561	84.6602	32.4361
973	58.312	63.2278	53.4828	67.0758	49.4055	72.004	43.8581	77.9247	37.2008	84.683	32.468
974	58.3596	63.2726	53.5317	67.1178	49.4548	72.0415	43.9067	77.9559	37.2454	84.7058	32.4998
975	58.4071	63.3173	53.5806	67.1597	49.5041	72.079	43.9553	77.9871	37.29	84.7284	32.5317
976	58.4546	63.362	53.6294	67.2015	49.5533	72.1165	44.0039	78.0182	37.3346	84.7511	32.5635
977	58.502	63.4066	53.6781	67.2433	49.6025	72.1538	44.0525	78.0492	37.3791	84.7736	32.5953
978	58.5494	63.4511	53.7268	67.285	49.6516	72.1911	44.101	78.0802	37.4237	84.7962	32.6272
979	58.5967	63.4956	53.7755	67.3266	49.7007	72.2283	44.1495	78.1111	37.4682	84.8186	32.659
980	58.6439	63.54	53.824	67.3681	49.7498	72.2655	44.1979	78.1419	37.5127	84.8411	32.6908
981	58.6911	63.5843	53.8725	67.4096	49.7987	72.3025	44.2463	78.1726	37.5572	84.8634	32.7226
982	58.7382	63.6285	53.921	67.451	49.8477	72.3395	44.2946	78.2033	37.6016	84.8857	32.7544
983	58.7852	63.6727	53.9694	67.4923	49.8966	72.3765	44.3429	78.2339	37.6461	84.908	32.7862
984	58.8321	63.7168	54.0177	67.5335	49.9454	72.4133	44.3912	78.2645	37.6904	84.9302	32.8179
985	58.879	63.7608	54.066	67.5747	49.9941	72.4501	44.4394	78.295	37.7348	84.9523	32.8497
986	58.9258	63.8047	54.1142	67.6158	50.0429	72.4868	44.4876	78.3254	37.7792	84.9744	32.8814
987	58.9725	63.8486	54.1623	67.6568	50.0915	72.5234	44.5357	78.3557	37.8235	84.9964	32.9131
988	59.0192	63.8924	54.2103	67.6977	50.1401	72.5599	44.5838	78.386	37.8678	85.0184	32.9448
989	59.0658	63.9361	54.2584	67.7386	50.1887	72.5964	44.6319	78.4162	37.912	85.0403	32.9765
990	59.1123	63.9797	54.3063	67.7793	50.2371	72.6328	44.6798	78.4463	37.9562	85.0622	33.0082
991	59.1587	64.0232	54.3542	67.82	50.2856	72.669	44.7278	78.4764	38.0004	85.084	33.0399
992	59.205	64.0667	54.4019	67.8606	50.3339	72.7053	44.7757	78.5064	38.0446	85.1058	33.0715
993	59.2513	64.11	54.4497	67.9011	50.3822	72.7414	44.8235	78.5363	38.0887	85.1274	33.1031
994	59.2975	64.1533	54.4973	67.9415	50.4304	72.7775	44.8713	78.5661	38.1328	85.1491	33.1347
995	59.3436	64.1965	54.5449	67.9819	50.4786	72.8134	44.919	78.5959	38.1768	85.1707	33.1663
996	59.3896	64.2396	54.5924	68.0221	50.5267	72.8493	44.9667	78.6256	38.2208	85.1922	33.1978
997	59.4356	64.2827	54.6399	68.0623	50.5748	72.8851	45.0144	78.6552	38.2648	85.2136	33.2294
998	59.4814	64.3256	54.6872	68.1024	50.6227	72.9208	45.0619	78.6847	38.3087	85.235	33.2609
999	59.5272	64.3685	54.7345	68.1424	50.6706	72.9565	45.1095	78.7142	38.3526	85.2564	33.2924
1000	59.5729	64.4113	54.7817	68.1823	50.7185	72.992	45.1569	78.7436	38.3965	85.2777	33.3238
